2.468230694037145678e+00
2.468230694037145678e+00
2.473118279569892497e+00
2.468230694037145678e+00
2.473118279569892497e+00
2.487781036168132953e+00
2.478005865102639316e+00
2.497556207233626591e+00
2.502443792766373409e+00
2.502443792766373409e+00
2.497556207233626591e+00
2.478005865102639316e+00
2.487781036168132953e+00
2.478005865102639316e+00
2.473118279569892497e+00
2.478005865102639316e+00
2.473118279569892497e+00
2.473118279569892497e+00
2.517106549364613866e+00
2.595307917888562965e+00
2.590420332355816146e+00
2.458455522971652041e+00
2.473118279569892497e+00
2.507331378299120228e+00
2.487781036168132953e+00
2.473118279569892497e+00
2.478005865102639316e+00
2.478005865102639316e+00
2.478005865102639316e+00
2.473118279569892497e+00
2.487781036168132953e+00
2.487781036168132953e+00
2.487781036168132953e+00
2.497556207233626591e+00
2.492668621700879772e+00
2.502443792766373409e+00
2.502443792766373409e+00
2.517106549364613866e+00
2.526881720430107503e+00
2.521994134897360684e+00
2.526881720430107503e+00
2.526881720430107503e+00
2.512218963831867047e+00
2.497556207233626591e+00
2.482893450635386134e+00
2.468230694037145678e+00
2.458455522971652041e+00
2.453567937438905222e+00
2.448680351906158403e+00
2.463343108504398860e+00
2.453567937438905222e+00
2.458455522971652041e+00
2.463343108504398860e+00
2.458455522971652041e+00
2.468230694037145678e+00
2.468230694037145678e+00
2.478005865102639316e+00
2.482893450635386134e+00
2.478005865102639316e+00
2.487781036168132953e+00
2.482893450635386134e+00
2.487781036168132953e+00
2.482893450635386134e+00
2.482893450635386134e+00
2.492668621700879772e+00
2.482893450635386134e+00
2.487781036168132953e+00
2.492668621700879772e+00
2.482893450635386134e+00
2.487781036168132953e+00
2.487781036168132953e+00
2.502443792766373409e+00
2.512218963831867047e+00
2.512218963831867047e+00
2.507331378299120228e+00
2.492668621700879772e+00
2.478005865102639316e+00
2.478005865102639316e+00
2.468230694037145678e+00
2.478005865102639316e+00
2.473118279569892497e+00
2.473118279569892497e+00
2.492668621700879772e+00
2.600195503421309784e+00
2.619745845552297059e+00
2.492668621700879772e+00
2.473118279569892497e+00
2.502443792766373409e+00
2.482893450635386134e+00
2.463343108504398860e+00
2.463343108504398860e+00
2.468230694037145678e+00
2.468230694037145678e+00
2.478005865102639316e+00
2.478005865102639316e+00
2.482893450635386134e+00
2.487781036168132953e+00
2.487781036168132953e+00
2.497556207233626591e+00
2.497556207233626591e+00
2.502443792766373409e+00
2.517106549364613866e+00
2.517106549364613866e+00
2.531769305962854322e+00
2.531769305962854322e+00
2.517106549364613866e+00
2.521994134897360684e+00
2.497556207233626591e+00
2.487781036168132953e+00
2.478005865102639316e+00
2.453567937438905222e+00
2.458455522971652041e+00
2.448680351906158403e+00
2.448680351906158403e+00
2.453567937438905222e+00
2.443792766373411585e+00
2.453567937438905222e+00
2.463343108504398860e+00
2.463343108504398860e+00
2.473118279569892497e+00
2.468230694037145678e+00
2.468230694037145678e+00
2.478005865102639316e+00
2.473118279569892497e+00
2.473118279569892497e+00
2.478005865102639316e+00
2.478005865102639316e+00
2.482893450635386134e+00
2.473118279569892497e+00
2.473118279569892497e+00
2.478005865102639316e+00
2.473118279569892497e+00
2.482893450635386134e+00
2.468230694037145678e+00
2.473118279569892497e+00
2.487781036168132953e+00
2.478005865102639316e+00
2.497556207233626591e+00
2.497556207233626591e+00
2.507331378299120228e+00
2.497556207233626591e+00
2.502443792766373409e+00
2.487781036168132953e+00
2.478005865102639316e+00
2.473118279569892497e+00
2.478005865102639316e+00
2.468230694037145678e+00
2.473118279569892497e+00
2.468230694037145678e+00
2.502443792766373409e+00
2.624633431085043878e+00
2.634408602150537515e+00
2.468230694037145678e+00
2.482893450635386134e+00
2.497556207233626591e+00
2.468230694037145678e+00
2.458455522971652041e+00
2.453567937438905222e+00
2.468230694037145678e+00
2.468230694037145678e+00
2.473118279569892497e+00
2.482893450635386134e+00
2.478005865102639316e+00
2.487781036168132953e+00
2.487781036168132953e+00
2.487781036168132953e+00
2.507331378299120228e+00
2.502443792766373409e+00
2.507331378299120228e+00
2.517106549364613866e+00
2.521994134897360684e+00
2.531769305962854322e+00
2.526881720430107503e+00
2.517106549364613866e+00
2.502443792766373409e+00
2.492668621700879772e+00
2.473118279569892497e+00
2.458455522971652041e+00
2.438905180840664766e+00
2.453567937438905222e+00
2.453567937438905222e+00
2.448680351906158403e+00
2.448680351906158403e+00
2.453567937438905222e+00
2.463343108504398860e+00
2.453567937438905222e+00
2.458455522971652041e+00
2.478005865102639316e+00
2.458455522971652041e+00
2.478005865102639316e+00
2.468230694037145678e+00
2.473118279569892497e+00
2.487781036168132953e+00
2.478005865102639316e+00
2.482893450635386134e+00
2.478005865102639316e+00
2.482893450635386134e+00
2.487781036168132953e+00
2.482893450635386134e+00
2.482893450635386134e+00
2.487781036168132953e+00
2.487781036168132953e+00
2.492668621700879772e+00
2.502443792766373409e+00
2.512218963831867047e+00
2.507331378299120228e+00
2.492668621700879772e+00
2.482893450635386134e+00
2.482893450635386134e+00
2.473118279569892497e+00
2.482893450635386134e+00
2.473118279569892497e+00
2.473118279569892497e+00
2.473118279569892497e+00
2.536656891495601140e+00
2.600195503421309784e+00
2.556207233626588415e+00
2.429130009775171128e+00
2.482893450635386134e+00
2.497556207233626591e+00
2.473118279569892497e+00
2.468230694037145678e+00
2.458455522971652041e+00
2.473118279569892497e+00
2.468230694037145678e+00
2.478005865102639316e+00
2.487781036168132953e+00
2.482893450635386134e+00
2.497556207233626591e+00
2.492668621700879772e+00
2.497556207233626591e+00
2.502443792766373409e+00
2.502443792766373409e+00
2.512218963831867047e+00
2.526881720430107503e+00
2.517106549364613866e+00
2.536656891495601140e+00
2.526881720430107503e+00
2.517106549364613866e+00
2.502443792766373409e+00
2.473118279569892497e+00
2.468230694037145678e+00
2.458455522971652041e+00
2.438905180840664766e+00
2.453567937438905222e+00
2.443792766373411585e+00
2.448680351906158403e+00
2.453567937438905222e+00
2.453567937438905222e+00
2.463343108504398860e+00
2.463343108504398860e+00
2.458455522971652041e+00
2.478005865102639316e+00
2.478005865102639316e+00
2.482893450635386134e+00
2.482893450635386134e+00
2.482893450635386134e+00
2.487781036168132953e+00
2.478005865102639316e+00
2.487781036168132953e+00
2.487781036168132953e+00
2.478005865102639316e+00
2.482893450635386134e+00
2.487781036168132953e+00
2.492668621700879772e+00
2.482893450635386134e+00
2.482893450635386134e+00
2.497556207233626591e+00
2.502443792766373409e+00
2.497556207233626591e+00
2.507331378299120228e+00
2.492668621700879772e+00
2.478005865102639316e+00
2.478005865102639316e+00
2.468230694037145678e+00
2.473118279569892497e+00
2.473118279569892497e+00
2.463343108504398860e+00
2.478005865102639316e+00
2.570869990224828872e+00
2.634408602150537515e+00
2.531769305962854322e+00
2.448680351906158403e+00
2.497556207233626591e+00
2.473118279569892497e+00
2.463343108504398860e+00
2.463343108504398860e+00
2.458455522971652041e+00
2.473118279569892497e+00
2.463343108504398860e+00
2.473118279569892497e+00
2.487781036168132953e+00
2.482893450635386134e+00
2.482893450635386134e+00
2.492668621700879772e+00
2.487781036168132953e+00
2.507331378299120228e+00
2.502443792766373409e+00
2.517106549364613866e+00
2.526881720430107503e+00
2.517106549364613866e+00
2.531769305962854322e+00
2.521994134897360684e+00
2.512218963831867047e+00
2.492668621700879772e+00
2.482893450635386134e+00
2.458455522971652041e+00
2.453567937438905222e+00
2.443792766373411585e+00
2.448680351906158403e+00
2.448680351906158403e+00
2.448680351906158403e+00
2.458455522971652041e+00
2.453567937438905222e+00
2.468230694037145678e+00
2.473118279569892497e+00
2.468230694037145678e+00
2.473118279569892497e+00
2.473118279569892497e+00
2.478005865102639316e+00
2.482893450635386134e+00
2.473118279569892497e+00
2.482893450635386134e+00
2.487781036168132953e+00
2.478005865102639316e+00
2.497556207233626591e+00
2.482893450635386134e+00
2.492668621700879772e+00
2.492668621700879772e+00
2.492668621700879772e+00
2.492668621700879772e+00
2.487781036168132953e+00
2.492668621700879772e+00
2.492668621700879772e+00
2.482893450635386134e+00
2.517106549364613866e+00
2.521994134897360684e+00
2.507331378299120228e+00
2.502443792766373409e+00
2.478005865102639316e+00
2.473118279569892497e+00
2.478005865102639316e+00
2.468230694037145678e+00
2.473118279569892497e+00
2.463343108504398860e+00
2.468230694037145678e+00
2.551319648093841597e+00
2.624633431085043878e+00
2.531769305962854322e+00
2.448680351906158403e+00
2.478005865102639316e+00
2.487781036168132953e+00
2.448680351906158403e+00
2.458455522971652041e+00
2.463343108504398860e+00
2.458455522971652041e+00
2.473118279569892497e+00
2.473118279569892497e+00
2.478005865102639316e+00
2.482893450635386134e+00
2.482893450635386134e+00
2.482893450635386134e+00
2.497556207233626591e+00
2.497556207233626591e+00
2.502443792766373409e+00
2.507331378299120228e+00
2.521994134897360684e+00
2.512218963831867047e+00
2.517106549364613866e+00
2.517106549364613866e+00
2.502443792766373409e+00
2.492668621700879772e+00
2.478005865102639316e+00
2.453567937438905222e+00
2.448680351906158403e+00
2.448680351906158403e+00
2.438905180840664766e+00
2.448680351906158403e+00
2.453567937438905222e+00
2.448680351906158403e+00
2.463343108504398860e+00
2.458455522971652041e+00
2.473118279569892497e+00
2.468230694037145678e+00
2.478005865102639316e+00
2.473118279569892497e+00
2.473118279569892497e+00
2.478005865102639316e+00
2.482893450635386134e+00
2.473118279569892497e+00
2.482893450635386134e+00
2.473118279569892497e+00
2.482893450635386134e+00
2.473118279569892497e+00
2.482893450635386134e+00
2.482893450635386134e+00
2.487781036168132953e+00
2.502443792766373409e+00
2.517106549364613866e+00
2.502443792766373409e+00
2.497556207233626591e+00
2.482893450635386134e+00
2.473118279569892497e+00
2.478005865102639316e+00
2.473118279569892497e+00
2.482893450635386134e+00
2.478005865102639316e+00
2.468230694037145678e+00
2.526881720430107503e+00
2.605083088954056603e+00
2.585532746823069328e+00
2.458455522971652041e+00
2.463343108504398860e+00
2.502443792766373409e+00
2.482893450635386134e+00
2.468230694037145678e+00
2.468230694037145678e+00
2.468230694037145678e+00
2.473118279569892497e+00
2.478005865102639316e+00
2.478005865102639316e+00
2.482893450635386134e+00
2.487781036168132953e+00
2.487781036168132953e+00
2.497556207233626591e+00
2.492668621700879772e+00
2.502443792766373409e+00
2.512218963831867047e+00
2.512218963831867047e+00
2.526881720430107503e+00
2.512218963831867047e+00
2.526881720430107503e+00
2.521994134897360684e+00
2.497556207233626591e+00
2.482893450635386134e+00
2.468230694037145678e+00
2.453567937438905222e+00
2.453567937438905222e+00
2.448680351906158403e+00
2.453567937438905222e+00
2.448680351906158403e+00
2.448680351906158403e+00
2.458455522971652041e+00
2.453567937438905222e+00
2.458455522971652041e+00
2.463343108504398860e+00
2.463343108504398860e+00
2.473118279569892497e+00
2.473118279569892497e+00
2.468230694037145678e+00
2.482893450635386134e+00
2.482893450635386134e+00
2.482893450635386134e+00
2.482893450635386134e+00
2.478005865102639316e+00
2.482893450635386134e+00
2.478005865102639316e+00
2.482893450635386134e+00
2.482893450635386134e+00
2.492668621700879772e+00
2.512218963831867047e+00
2.507331378299120228e+00
2.492668621700879772e+00
2.478005865102639316e+00
2.473118279569892497e+00
2.473118279569892497e+00
2.468230694037145678e+00
2.478005865102639316e+00
2.478005865102639316e+00
2.473118279569892497e+00
2.492668621700879772e+00
2.595307917888562965e+00
2.600195503421309784e+00
2.482893450635386134e+00
2.453567937438905222e+00
2.497556207233626591e+00
2.487781036168132953e+00
2.468230694037145678e+00
2.463343108504398860e+00
2.473118279569892497e+00
2.468230694037145678e+00
2.473118279569892497e+00
2.482893450635386134e+00
2.482893450635386134e+00
2.492668621700879772e+00
2.487781036168132953e+00
2.497556207233626591e+00
2.502443792766373409e+00
2.507331378299120228e+00
2.512218963831867047e+00
2.517106549364613866e+00
2.521994134897360684e+00
2.521994134897360684e+00
2.521994134897360684e+00
2.526881720430107503e+00
2.507331378299120228e+00
2.492668621700879772e+00
2.478005865102639316e+00
2.453567937438905222e+00
2.453567937438905222e+00
2.453567937438905222e+00
2.448680351906158403e+00
2.453567937438905222e+00
2.448680351906158403e+00
2.463343108504398860e+00
2.463343108504398860e+00
2.453567937438905222e+00
2.478005865102639316e+00
2.468230694037145678e+00
2.468230694037145678e+00
2.478005865102639316e+00
2.458455522971652041e+00
2.487781036168132953e+00
2.487781036168132953e+00
2.473118279569892497e+00
2.482893450635386134e+00
2.463343108504398860e+00
2.487781036168132953e+00
2.482893450635386134e+00
2.473118279569892497e+00
2.492668621700879772e+00
2.487781036168132953e+00
2.487781036168132953e+00
2.497556207233626591e+00
2.492668621700879772e+00
2.507331378299120228e+00
2.502443792766373409e+00
2.487781036168132953e+00
2.478005865102639316e+00
2.482893450635386134e+00
2.482893450635386134e+00
2.478005865102639316e+00
2.478005865102639316e+00
2.473118279569892497e+00
2.463343108504398860e+00
2.531769305962854322e+00
2.619745845552297059e+00
2.590420332355816146e+00
2.448680351906158403e+00
2.482893450635386134e+00
2.492668621700879772e+00
2.463343108504398860e+00
2.458455522971652041e+00
2.463343108504398860e+00
2.463343108504398860e+00
2.473118279569892497e+00
2.478005865102639316e+00
2.482893450635386134e+00
2.478005865102639316e+00
2.482893450635386134e+00
2.492668621700879772e+00
2.497556207233626591e+00
2.497556207233626591e+00
2.507331378299120228e+00
2.512218963831867047e+00
2.521994134897360684e+00
2.517106549364613866e+00
2.531769305962854322e+00
2.517106549364613866e+00
2.521994134897360684e+00
2.507331378299120228e+00
2.482893450635386134e+00
2.473118279569892497e+00
2.448680351906158403e+00
2.448680351906158403e+00
2.448680351906158403e+00
2.443792766373411585e+00
2.453567937438905222e+00
2.443792766373411585e+00
2.463343108504398860e+00
2.463343108504398860e+00
2.463343108504398860e+00
2.468230694037145678e+00
2.473118279569892497e+00
2.478005865102639316e+00
2.487781036168132953e+00
2.468230694037145678e+00
2.478005865102639316e+00
2.478005865102639316e+00
2.482893450635386134e+00
2.487781036168132953e+00
2.482893450635386134e+00
2.478005865102639316e+00
2.487781036168132953e+00
2.478005865102639316e+00
2.482893450635386134e+00
2.478005865102639316e+00
2.487781036168132953e+00
2.492668621700879772e+00
2.487781036168132953e+00
2.507331378299120228e+00
2.517106549364613866e+00
2.497556207233626591e+00
2.502443792766373409e+00
2.482893450635386134e+00
2.482893450635386134e+00
2.482893450635386134e+00
2.478005865102639316e+00
2.482893450635386134e+00
2.473118279569892497e+00
2.482893450635386134e+00
2.585532746823069328e+00
2.614858260019550240e+00
2.521994134897360684e+00
2.453567937438905222e+00
2.492668621700879772e+00
2.478005865102639316e+00
2.463343108504398860e+00
2.458455522971652041e+00
2.468230694037145678e+00
2.468230694037145678e+00
2.482893450635386134e+00
2.478005865102639316e+00
2.473118279569892497e+00
2.492668621700879772e+00
2.487781036168132953e+00
2.492668621700879772e+00
2.497556207233626591e+00
2.502443792766373409e+00
2.517106549364613866e+00
2.512218963831867047e+00
2.517106549364613866e+00
2.526881720430107503e+00
2.517106549364613866e+00
2.526881720430107503e+00
2.507331378299120228e+00
2.492668621700879772e+00
2.482893450635386134e+00
2.463343108504398860e+00
2.458455522971652041e+00
2.448680351906158403e+00
2.438905180840664766e+00
2.448680351906158403e+00
2.448680351906158403e+00
2.448680351906158403e+00
2.458455522971652041e+00
2.458455522971652041e+00
2.458455522971652041e+00
2.468230694037145678e+00
2.463343108504398860e+00
2.482893450635386134e+00
2.468230694037145678e+00
2.473118279569892497e+00
2.478005865102639316e+00
2.473118279569892497e+00
2.468230694037145678e+00
2.473118279569892497e+00
2.482893450635386134e+00
2.482893450635386134e+00
2.468230694037145678e+00
2.487781036168132953e+00
2.482893450635386134e+00
2.492668621700879772e+00
2.507331378299120228e+00
2.487781036168132953e+00
2.492668621700879772e+00
2.482893450635386134e+00
2.468230694037145678e+00
2.473118279569892497e+00
2.468230694037145678e+00
2.478005865102639316e+00
2.473118279569892497e+00
2.487781036168132953e+00
2.570869990224828872e+00
2.585532746823069328e+00
2.492668621700879772e+00
2.458455522971652041e+00
2.497556207233626591e+00
2.497556207233626591e+00
2.473118279569892497e+00
2.468230694037145678e+00
2.468230694037145678e+00
2.468230694037145678e+00
2.478005865102639316e+00
2.482893450635386134e+00
2.478005865102639316e+00
2.492668621700879772e+00
2.487781036168132953e+00
2.492668621700879772e+00
2.502443792766373409e+00
2.487781036168132953e+00
2.517106549364613866e+00
2.517106549364613866e+00
2.517106549364613866e+00
2.526881720430107503e+00
2.517106549364613866e+00
2.512218963831867047e+00
2.507331378299120228e+00
2.487781036168132953e+00
2.473118279569892497e+00
2.468230694037145678e+00
2.453567937438905222e+00
2.458455522971652041e+00
2.453567937438905222e+00
2.448680351906158403e+00
2.443792766373411585e+00
2.458455522971652041e+00
2.463343108504398860e+00
2.458455522971652041e+00
2.463343108504398860e+00
2.478005865102639316e+00
2.473118279569892497e+00
2.478005865102639316e+00
2.482893450635386134e+00
2.487781036168132953e+00
2.487781036168132953e+00
2.478005865102639316e+00
2.487781036168132953e+00
2.487781036168132953e+00
2.487781036168132953e+00
2.497556207233626591e+00
2.487781036168132953e+00
2.497556207233626591e+00
2.507331378299120228e+00
2.507331378299120228e+00
2.497556207233626591e+00
2.487781036168132953e+00
2.478005865102639316e+00
2.478005865102639316e+00
2.473118279569892497e+00
2.473118279569892497e+00
2.473118279569892497e+00
2.468230694037145678e+00
2.487781036168132953e+00
2.580645161290322509e+00
2.609970674486803421e+00
2.507331378299120228e+00
2.453567937438905222e+00
2.497556207233626591e+00
2.473118279569892497e+00
2.463343108504398860e+00
2.468230694037145678e+00
2.463343108504398860e+00
2.463343108504398860e+00
2.473118279569892497e+00
2.468230694037145678e+00
2.482893450635386134e+00
2.482893450635386134e+00
2.497556207233626591e+00
2.492668621700879772e+00
2.497556207233626591e+00
2.502443792766373409e+00
2.512218963831867047e+00
2.512218963831867047e+00
2.531769305962854322e+00
2.521994134897360684e+00
2.521994134897360684e+00
2.526881720430107503e+00
2.497556207233626591e+00
2.497556207233626591e+00
2.473118279569892497e+00
2.453567937438905222e+00
2.453567937438905222e+00
2.443792766373411585e+00
2.448680351906158403e+00
2.448680351906158403e+00
2.453567937438905222e+00
2.458455522971652041e+00
2.458455522971652041e+00
2.463343108504398860e+00
2.473118279569892497e+00
2.473118279569892497e+00
2.473118279569892497e+00
2.478005865102639316e+00
2.473118279569892497e+00
2.482893450635386134e+00
2.473118279569892497e+00
2.473118279569892497e+00
2.478005865102639316e+00
2.478005865102639316e+00
2.478005865102639316e+00
2.473118279569892497e+00
2.482893450635386134e+00
2.492668621700879772e+00
2.487781036168132953e+00
2.502443792766373409e+00
2.512218963831867047e+00
2.487781036168132953e+00
2.487781036168132953e+00
2.478005865102639316e+00
2.478005865102639316e+00
2.478005865102639316e+00
2.473118279569892497e+00
2.473118279569892497e+00
2.468230694037145678e+00
2.458455522971652041e+00
2.570869990224828872e+00
2.629521016617790696e+00
2.556207233626588415e+00
2.468230694037145678e+00
2.492668621700879772e+00
2.478005865102639316e+00
2.453567937438905222e+00
2.458455522971652041e+00
2.463343108504398860e+00
2.468230694037145678e+00
2.473118279569892497e+00
2.478005865102639316e+00
2.478005865102639316e+00
2.487781036168132953e+00
2.482893450635386134e+00
2.492668621700879772e+00
2.492668621700879772e+00
2.497556207233626591e+00
2.507331378299120228e+00
2.512218963831867047e+00
2.521994134897360684e+00
2.526881720430107503e+00
2.507331378299120228e+00
2.531769305962854322e+00
2.517106549364613866e+00
2.502443792766373409e+00
2.482893450635386134e+00
2.458455522971652041e+00
2.458455522971652041e+00
2.448680351906158403e+00
2.448680351906158403e+00
2.458455522971652041e+00
2.453567937438905222e+00
2.458455522971652041e+00
2.458455522971652041e+00
2.463343108504398860e+00
2.473118279569892497e+00
2.453567937438905222e+00
2.463343108504398860e+00
2.478005865102639316e+00
2.473118279569892497e+00
2.473118279569892497e+00
2.478005865102639316e+00
2.478005865102639316e+00
2.478005865102639316e+00
2.482893450635386134e+00
2.487781036168132953e+00
2.487781036168132953e+00
2.487781036168132953e+00
2.492668621700879772e+00
2.497556207233626591e+00
2.502443792766373409e+00
2.497556207233626591e+00
2.487781036168132953e+00
2.478005865102639316e+00
2.468230694037145678e+00
2.463343108504398860e+00
2.478005865102639316e+00
2.473118279569892497e+00
2.468230694037145678e+00
2.468230694037145678e+00
2.546432062561094778e+00
2.595307917888562965e+00
2.536656891495601140e+00
2.434017595307917947e+00
2.502443792766373409e+00
2.492668621700879772e+00
2.473118279569892497e+00
2.463343108504398860e+00
2.468230694037145678e+00
2.478005865102639316e+00
2.468230694037145678e+00
2.478005865102639316e+00
2.478005865102639316e+00
2.482893450635386134e+00
2.492668621700879772e+00
2.492668621700879772e+00
2.487781036168132953e+00
2.507331378299120228e+00
2.497556207233626591e+00
2.512218963831867047e+00
2.512218963831867047e+00
2.521994134897360684e+00
2.521994134897360684e+00
2.512218963831867047e+00
2.502443792766373409e+00
2.497556207233626591e+00
2.473118279569892497e+00
2.463343108504398860e+00
2.458455522971652041e+00
2.443792766373411585e+00
2.453567937438905222e+00
2.453567937438905222e+00
2.453567937438905222e+00
2.458455522971652041e+00
2.458455522971652041e+00
2.468230694037145678e+00
2.473118279569892497e+00
2.473118279569892497e+00
2.478005865102639316e+00
2.468230694037145678e+00
2.473118279569892497e+00
2.482893450635386134e+00
2.473118279569892497e+00
2.482893450635386134e+00
2.482893450635386134e+00
2.487781036168132953e+00
2.492668621700879772e+00
2.487781036168132953e+00
2.492668621700879772e+00
2.502443792766373409e+00
2.502443792766373409e+00
2.502443792766373409e+00
2.487781036168132953e+00
2.487781036168132953e+00
2.478005865102639316e+00
2.468230694037145678e+00
2.478005865102639316e+00
2.473118279569892497e+00
2.473118279569892497e+00
2.478005865102639316e+00
2.546432062561094778e+00
2.600195503421309784e+00
2.541544477028347959e+00
2.443792766373411585e+00
2.497556207233626591e+00
2.492668621700879772e+00
2.473118279569892497e+00
2.473118279569892497e+00
2.468230694037145678e+00
2.473118279569892497e+00
2.468230694037145678e+00
2.482893450635386134e+00
2.482893450635386134e+00
2.478005865102639316e+00
2.492668621700879772e+00
2.497556207233626591e+00
2.497556207233626591e+00
2.507331378299120228e+00
2.502443792766373409e+00
2.521994134897360684e+00
2.526881720430107503e+00
2.517106549364613866e+00
2.526881720430107503e+00
2.512218963831867047e+00
2.507331378299120228e+00
2.497556207233626591e+00
2.468230694037145678e+00
2.463343108504398860e+00
2.458455522971652041e+00
2.453567937438905222e+00
2.453567937438905222e+00
2.443792766373411585e+00
2.453567937438905222e+00
2.453567937438905222e+00
2.458455522971652041e+00
2.468230694037145678e+00
2.468230694037145678e+00
2.468230694037145678e+00
2.473118279569892497e+00
2.473118279569892497e+00
2.473118279569892497e+00
2.482893450635386134e+00
2.478005865102639316e+00
2.487781036168132953e+00
2.482893450635386134e+00
2.478005865102639316e+00
2.487781036168132953e+00
2.482893450635386134e+00
2.482893450635386134e+00
2.487781036168132953e+00
2.482893450635386134e+00
2.502443792766373409e+00
2.502443792766373409e+00
2.507331378299120228e+00
2.502443792766373409e+00
2.482893450635386134e+00
2.482893450635386134e+00
2.468230694037145678e+00
2.478005865102639316e+00
2.478005865102639316e+00
2.468230694037145678e+00
2.473118279569892497e+00
2.463343108504398860e+00
2.570869990224828872e+00
2.634408602150537515e+00
2.541544477028347959e+00
2.468230694037145678e+00
2.497556207233626591e+00
2.482893450635386134e+00
2.463343108504398860e+00
2.458455522971652041e+00
2.463343108504398860e+00
2.468230694037145678e+00
2.463343108504398860e+00
2.468230694037145678e+00
2.478005865102639316e+00
2.482893450635386134e+00
2.487781036168132953e+00
2.482893450635386134e+00
2.492668621700879772e+00
2.497556207233626591e+00
2.502443792766373409e+00
2.517106549364613866e+00
2.517106549364613866e+00
2.526881720430107503e+00
2.526881720430107503e+00
2.512218963831867047e+00
2.517106549364613866e+00
2.492668621700879772e+00
2.473118279569892497e+00
2.463343108504398860e+00
2.448680351906158403e+00
2.458455522971652041e+00
